4000.07560,1.02178
3998.14692,1.02182
3996.21824,1.02187
3994.28957,1.02189
3992.36089,1.02187
3990.43221,1.02181
3988.50354,1.02180
3986.57486,1.02185
3984.64618,1.02186
3982.71750,1.02185
3980.78883,1.02186
3978.86015,1.02189
3976.93147,1.02193
3975.00280,1.02197
3973.07412,1.02198
3971.14544,1.02198
3969.21677,1.02197
3967.28809,1.02196
3965.35941,1.02194
3963.43074,1.02192
3961.50206,1.02190
3959.57338,1.02191
3957.64471,1.02194
3955.71603,1.02190
3953.78735,1.02178
3951.85868,1.02167
3949.93000,1.02166
3948.00132,1.02173
3946.07265,1.02179
3944.14397,1.02180
3942.21529,1.02180
3940.28662,1.02184
3938.35794,1.02190
3936.42926,1.02188
3934.50059,1.02177
3932.57191,1.02171
3930.64323,1.02175
3928.71456,1.02182
3926.78588,1.02184
3924.85720,1.02185
3922.92853,1.02188
3920.99985,1.02191
3919.07117,1.02190
3917.14250,1.02189
3915.21382,1.02192
3913.28514,1.02192
3911.35646,1.02190
3909.42779,1.02191
3907.49911,1.02194
3905.57043,1.02193
3903.64176,1.02187
3901.71308,1.02180
3899.78440,1.02176
3897.85573,1.02179
3895.92705,1.02186
3893.99837,1.02190
3892.06970,1.02184
3890.14102,1.02177
3888.21234,1.02178
3886.28367,1.02189
3884.35499,1.02196
3882.42631,1.02193
3880.49764,1.02186
3878.56896,1.02182
3876.64028,1.02181
3874.71161,1.02185
3872.78293,1.02191
3870.85425,1.02192
3868.92558,1.02188
3866.99690,1.02189
3865.06822,1.02191
3863.13955,1.02189
3861.21087,1.02182
3859.28219,1.02178
3857.35352,1.02178
3855.42484,1.02179
3853.49616,1.02180
3851.56749,1.02182
3849.63881,1.02185
3847.71013,1.02187
3845.78146,1.02182
3843.85278,1.02175
3841.92410,1.02176
3839.99542,1.02178
3838.06675,1.02178
3836.13807,1.02179
3834.20939,1.02181
3832.28072,1.02181
3830.35204,1.02178
3828.42336,1.02173
3826.49469,1.02171
3824.56601,1.02171
3822.63733,1.02172
3820.70866,1.02172
3818.77998,1.02173
3816.85130,1.02173
3814.92263,1.02173
3812.99395,1.02174
3811.06527,1.02172
3809.13660,1.02167
3807.20792,1.02163
3805.27924,1.02166
3803.35057,1.02169
3801.42189,1.02170
3799.49321,1.02168
3797.56454,1.02167
3795.63586,1.02168
3793.70718,1.02170
3791.77851,1.02169
3789.84983,1.02170
3787.92115,1.02171
3785.99248,1.02164
3784.06380,1.02159
3782.13512,1.02162
3780.20645,1.02168
3778.27777,1.02170
3776.34909,1.02168
3774.42042,1.02164
3772.49174,1.02162
3770.56306,1.02160
3768.63438,1.02160
3766.70571,1.02163
3764.77703,1.02162
3762.84835,1.02159
3760.91968,1.02157
3758.99100,1.02155
3757.06232,1.02153
3755.13365,1.02152
3753.20497,1.02150
3751.27629,1.02149
3749.34762,1.02152
3747.41894,1.02156
3745.49026,1.02156
3743.56159,1.02154
3741.63291,1.02150
3739.70423,1.02145
3737.77556,1.02140
3735.84688,1.02136
3733.91820,1.02134
3731.98953,1.02133
3730.06085,1.02131
3728.13217,1.02129
3726.20350,1.02127
3724.27482,1.02126
3722.34614,1.02128
3720.41747,1.02126
3718.48879,1.02117
3716.56011,1.02109
3714.63144,1.02106
3712.70276,1.02101
3710.77408,1.02091
3708.84541,1.02080
3706.91673,1.02072
3704.98805,1.02068
3703.05938,1.02061
3701.13070,1.02049
3699.20202,1.02040
3697.27334,1.02028
3695.34467,1.02006
3693.41599,1.01979
3691.48731,1.01958
3689.55864,1.01946
3687.62996,1.01934
3685.70128,1.01917
3683.77261,1.01901
3681.84393,1.01884
3679.91525,1.01867
3677.98658,1.01854
3676.05790,1.01836
3674.12922,1.01812
3672.20055,1.01790
3670.27187,1.01776
3668.34319,1.01764
3666.41452,1.01749
3664.48584,1.01733
3662.55716,1.01718
3660.62849,1.01706
3658.69981,1.01691
3656.77113,1.01674
3654.84246,1.01658
3652.91378,1.01642
3650.98510,1.01630
3649.05643,1.01620
3647.12775,1.01608
3645.19907,1.01594
3643.27040,1.01579
3641.34172,1.01568
3639.41304,1.01555
3637.48437,1.01537
3635.55569,1.01523
3633.62701,1.01509
3631.69833,1.01494
3629.76966,1.01477
3627.84098,1.01456
3625.91230,1.01438
3623.98363,1.01426
3622.05495,1.01419
3620.12627,1.01410
3618.19760,1.01396
3616.26892,1.01377
3614.34024,1.01361
3612.41157,1.01346
3610.48289,1.01331
3608.55421,1.01318
3606.62554,1.01308
3604.69686,1.01296
3602.76818,1.01281
3600.83951,1.01263
3598.91083,1.01243
3596.98215,1.01227
3595.05348,1.01214
3593.12480,1.01197
3591.19612,1.01164
3589.26745,1.01111
3587.33877,1.01066
3585.41009,1.01053
3583.48142,1.01059
3581.55274,1.01060
3579.62406,1.01054
3577.69539,1.01049
3575.76671,1.01045
3573.83803,1.01041
3571.90936,1.01031
3569.98068,1.01015
3568.05200,1.01000
3566.12333,1.00986
3564.19465,1.00973
3562.26597,1.00961
3560.33729,1.00946
3558.40862,1.00929
3556.47994,1.00917
3554.55126,1.00910
3552.62259,1.00903
3550.69391,1.00893
3548.76523,1.00883
3546.83656,1.00870
3544.90788,1.00854
3542.97920,1.00838
3541.05053,1.00824
3539.12185,1.00808
3537.19317,1.00792
3535.26450,1.00780
3533.33582,1.00776
3531.40714,1.00770
3529.47847,1.00759
3527.54979,1.00746
3525.62111,1.00732
3523.69244,1.00717
3521.76376,1.00700
3519.83508,1.00681
3517.90641,1.00665
3515.97773,1.00653
3514.04905,1.00642
3512.12038,1.00629
3510.19170,1.00614
3508.26302,1.00600
3506.33435,1.00585
3504.40567,1.00568
3502.47699,1.00553
3500.54832,1.00544
3498.61964,1.00537
3496.69096,1.00524
3494.76229,1.00506
3492.83361,1.00487
3490.90493,1.00480
3488.97625,1.00479
3487.04758,1.00470
3485.11890,1.00451
3483.19022,1.00432
3481.26155,1.00412
3479.33287,1.00394
3477.40419,1.00387
3475.47552,1.00386
3473.54684,1.00379
3471.61816,1.00367
3469.68949,1.00355
3467.76081,1.00345
3465.83213,1.00332
3463.90346,1.00320
3461.97478,1.00311
3460.04610,1.00296
3458.11743,1.00276
3456.18875,1.00263
3454.26007,1.00256
3452.33140,1.00254
3450.40272,1.00251
3448.47404,1.00239
3446.54537,1.00220
3444.61669,1.00206
3442.68801,1.00197
3440.75934,1.00190
3438.83066,1.00180
3436.90198,1.00167
3434.97331,1.00153
3433.04463,1.00141
3431.11595,1.00131
3429.18728,1.00122
3427.25860,1.00115
3425.32992,1.00111
3423.40125,1.00107
3421.47257,1.00097
3419.54389,1.00081
3417.61521,1.00068
3415.68654,1.00060
3413.75786,1.00052
3411.82918,1.00043
3409.90051,1.00036
3407.97183,1.00028
3406.04315,1.00018
3404.11448,1.00012
3402.18580,1.00012
3400.25712,1.00008
3398.32845,1.00000
3396.39977,0.99987
3394.47109,0.99974
3392.54242,0.99965
3390.61374,0.99964
3388.68506,0.99967
3386.75639,0.99969
3384.82771,0.99964
3382.89903,0.99958
3380.97036,0.99954
3379.04168,0.99948
3377.11300,0.99938
3375.18433,0.99930
3373.25565,0.99930
3371.32697,0.99933
3369.39830,0.99936
3367.46962,0.99938
3365.54094,0.99937
3363.61227,0.99929
3361.68359,0.99919
3359.75491,0.99915
3357.82624,0.99917
3355.89756,0.99917
3353.96888,0.99916
3352.04021,0.99916
3350.11153,0.99916
3348.18285,0.99918
3346.25417,0.99922
3344.32550,0.99930
3342.39682,0.99939
3340.46814,0.99946
3338.53947,0.99949
3336.61079,0.99950
3334.68211,0.99955
3332.75344,0.99963
3330.82476,0.99967
3328.89608,0.99967
3326.96741,0.99967
3325.03873,0.99972
3323.11005,0.99977
3321.18138,0.99979
3319.25270,0.99979
3317.32402,0.99982
3315.39535,0.99985
3313.46667,0.99991
3311.53799,1.00001
3309.60932,1.00005
3307.68064,1.00001
3305.75196,0.99999
3303.82329,1.00004
3301.89461,1.00006
3299.96593,1.00002
3298.03726,0.99997
3296.10858,0.99996
3294.17990,0.99992
3292.25123,0.99989
3290.32255,0.99992
3288.39387,0.99998
3286.46520,1.00003
3284.53652,1.00005
3282.60784,1.00003
3280.67917,1.00004
3278.75049,1.00011
3276.82181,1.00018
3274.89313,1.00021
3272.96446,1.00019
3271.03578,1.00016
3269.10710,1.00016
3267.17843,1.00018
3265.24975,1.00022
3263.32107,1.00028
3261.39240,1.00037
3259.46372,1.00049
3257.53504,1.00056
3255.60637,1.00055
3253.67769,1.00052
3251.74901,1.00057
3249.82034,1.00071
3247.89166,1.00079
3245.96298,1.00077
3244.03431,1.00077
3242.10563,1.00083
3240.17695,1.00088
3238.24828,1.00091
3236.31960,1.00096
3234.39092,1.00103
3232.46225,1.00104
3230.53357,1.00104
3228.60489,1.00107
3226.67622,1.00105
3224.74754,1.00097
3222.81886,1.00093
3220.89019,1.00101
3218.96151,1.00112
3217.03283,1.00117
3215.10416,1.00119
3213.17548,1.00121
3211.24680,1.00120
3209.31813,1.00114
3207.38945,1.00112
3205.46077,1.00118
3203.53209,1.00129
3201.60342,1.00139
3199.67474,1.00145
3197.74606,1.00147
3195.81739,1.00147
3193.88871,1.00148
3191.96003,1.00153
3190.03136,1.00165
3188.10268,1.00175
3186.17400,1.00180
3184.24533,1.00182
3182.31665,1.00185
3180.38797,1.00189
3178.45930,1.00193
3176.53062,1.00197
3174.60194,1.00200
3172.67327,1.00208
3170.74459,1.00221
3168.81591,1.00232
3166.88724,1.00240
3164.95856,1.00249
3163.02988,1.00257
3161.10121,1.00269
3159.17253,1.00284
3157.24385,1.00291
3155.31518,1.00295
3153.38650,1.00303
3151.45782,1.00310
3149.52915,1.00313
3147.60047,1.00320
3145.67179,1.00327
3143.74312,1.00333
3141.81444,1.00345
3139.88576,1.00362
3137.95708,1.00376
3136.02841,1.00386
3134.09973,1.00396
3132.17105,1.00407
3130.24238,1.00420
3128.31370,1.00433
3126.38502,1.00446
3124.45635,1.00461
3122.52767,1.00472
3120.59899,1.00479
3118.67032,1.00487
3116.74164,1.00492
3114.81296,1.00494
3112.88429,1.00499
3110.95561,1.00507
3109.02693,1.00516
3107.09826,1.00528
3105.16958,1.00537
3103.24090,1.00538
3101.31223,1.00529
3099.38355,1.00519
3097.45487,1.00516
3095.52620,1.00524
3093.59752,1.00535
3091.66884,1.00546
3089.74017,1.00561
3087.81149,1.00580
3085.88281,1.00597
3083.95414,1.00611
3082.02546,1.00627
3080.09678,1.00648
3078.16811,1.00672
3076.23943,1.00700
3074.31075,1.00732
3072.38208,1.00759
3070.45340,1.00777
3068.52472,1.00792
3066.59604,1.00810
3064.66737,1.00829
3062.73869,1.00842
3060.81001,1.00851
3058.88134,1.00861
3056.95266,1.00871
3055.02398,1.00879
3053.09531,1.00887
3051.16663,1.00897
3049.23795,1.00907
3047.30928,1.00916
3045.38060,1.00922
3043.45192,1.00927
3041.52325,1.00934
3039.59457,1.00944
3037.66589,1.00954
3035.73722,1.00960
3033.80854,1.00965
3031.87986,1.00972
3029.95119,1.00977
3028.02251,1.00979
3026.09383,1.00983
3024.16516,1.00990
3022.23648,1.00998
3020.30780,1.01005
3018.37913,1.01009
3016.45045,1.01012
3014.52177,1.01016
3012.59310,1.01021
3010.66442,1.01024
3008.73574,1.01027
3006.80707,1.01033
3004.87839,1.01040
3002.94971,1.01046
3001.02104,1.01050
2999.09236,1.01051
2997.16368,1.01052
2995.23500,1.01054
2993.30633,1.01061
2991.37765,1.01075
2989.44897,1.01086
2987.52030,1.01090
2985.59162,1.01096
2983.66294,1.01106
2981.73427,1.01118
2979.80559,1.01128
2977.87691,1.01138
2975.94824,1.01154
2974.01956,1.01177
2972.09088,1.01205
2970.16221,1.01234
2968.23353,1.01260
2966.30485,1.01279
2964.37618,1.01288
2962.44750,1.01289
2960.51882,1.01287
2958.59015,1.01282
2956.66147,1.01279
2954.73279,1.01280
2952.80412,1.01285
2950.87544,1.01292
2948.94676,1.01304
2947.01809,1.01327
2945.08941,1.01358
2943.16073,1.01387
2941.23206,1.01410
2939.30338,1.01435
2937.37470,1.01459
2935.44603,1.01474
2933.51735,1.01482
2931.58867,1.01483
2929.66000,1.01484
2927.73132,1.01487
2925.80264,1.01483
2923.87396,1.01475
2921.94529,1.01476
2920.01661,1.01497
2918.08793,1.01536
2916.15926,1.01574
2914.23058,1.01581
2912.30190,1.01548
2910.37323,1.01500
2908.44455,1.01465
2906.51587,1.01448
2904.58720,1.01439
2902.65852,1.01432
2900.72984,1.01428
2898.80117,1.01427
2896.87249,1.01428
2894.94381,1.01429
2893.01514,1.01429
2891.08646,1.01428
2889.15778,1.01424
2887.22911,1.01422
2885.30043,1.01427
2883.37175,1.01439
2881.44308,1.01449
2879.51440,1.01454
2877.58572,1.01459
2875.65705,1.01464
2873.72837,1.01468
2871.79969,1.01478
2869.87102,1.01494
2867.94234,1.01512
2866.01366,1.01527
2864.08499,1.01537
2862.15631,1.01543
2860.22763,1.01545
2858.29896,1.01545
2856.37028,1.01551
2854.44160,1.01570
2852.51292,1.01601
2850.58425,1.01637
2848.65557,1.01656
2846.72689,1.01642
2844.79822,1.01600
2842.86954,1.01556
2840.94086,1.01529
2839.01219,1.01515
2837.08351,1.01510
2835.15483,1.01508
2833.22616,1.01506
2831.29748,1.01505
2829.36880,1.01507
2827.44013,1.01511
2825.51145,1.01511
2823.58277,1.01512
2821.65410,1.01517
2819.72542,1.01522
2817.79674,1.01524
2815.86807,1.01524
2813.93939,1.01523
2812.01071,1.01525
2810.08204,1.01530
2808.15336,1.01535
2806.22468,1.01538
2804.29601,1.01541
2802.36733,1.01546
2800.43865,1.01549
2798.50998,1.01547
2796.58130,1.01545
2794.65262,1.01550
2792.72395,1.01557
2790.79527,1.01561
2788.86659,1.01563
2786.93792,1.01567
2785.00924,1.01569
2783.08056,1.01567
2781.15188,1.01568
2779.22321,1.01576
2777.29453,1.01585
2775.36585,1.01586
2773.43718,1.01580
2771.50850,1.01576
2769.57982,1.01579
2767.65115,1.01583
2765.72247,1.01582
2763.79379,1.01582
2761.86512,1.01588
2759.93644,1.01595
2758.00776,1.01600
2756.07909,1.01605
2754.15041,1.01607
2752.22173,1.01607
2750.29306,1.01608
2748.36438,1.01611
2746.43570,1.01616
2744.50703,1.01624
2742.57835,1.01626
2740.64967,1.01623
2738.72100,1.01624
2736.79232,1.01630
2734.86364,1.01635
2732.93497,1.01636
2731.00629,1.01636
2729.07761,1.01637
2727.14894,1.01638
2725.22026,1.01640
2723.29158,1.01642
2721.36291,1.01643
2719.43423,1.01645
2717.50555,1.01648
2715.57688,1.01647
2713.64820,1.01646
2711.71952,1.01649
2709.79084,1.01651
2707.86217,1.01652
2705.93349,1.01653
2704.00481,1.01653
2702.07614,1.01652
2700.14746,1.01651
2698.21878,1.01652
2696.29011,1.01651
2694.36143,1.01649
2692.43275,1.01648
2690.50408,1.01649
2688.57540,1.01649
2686.64672,1.01646
2684.71805,1.01644
2682.78937,1.01641
2680.86069,1.01640
2678.93202,1.01642
2677.00334,1.01644
2675.07466,1.01642
2673.14599,1.01638
2671.21731,1.01639
2669.28863,1.01641
2667.35996,1.01640
2665.43128,1.01638
2663.50260,1.01639
2661.57393,1.01641
2659.64525,1.01643
2657.71657,1.01644
2655.78790,1.01643
2653.85922,1.01643
2651.93054,1.01645
2650.00187,1.01648
2648.07319,1.01651
2646.14451,1.01655
2644.21583,1.01656
2642.28716,1.01656
2640.35848,1.01655
2638.42980,1.01656
2636.50113,1.01658
2634.57245,1.01661
2632.64377,1.01664
2630.71510,1.01664
2628.78642,1.01663
2626.85774,1.01663
2624.92907,1.01665
2623.00039,1.01664
2621.07171,1.01663
2619.14304,1.01666
2617.21436,1.01670
2615.28568,1.01674
2613.35701,1.01678
2611.42833,1.01680
2609.49965,1.01679
2607.57098,1.01678
2605.64230,1.01677
2603.71362,1.01678
2601.78495,1.01681
2599.85627,1.01685
2597.92759,1.01685
2595.99892,1.01681
2594.07024,1.01678
2592.14156,1.01674
2590.21289,1.01672
2588.28421,1.01673
2586.35553,1.01674
2584.42686,1.01674
2582.49818,1.01673
2580.56950,1.01669
2578.64083,1.01665
2576.71215,1.01664
2574.78347,1.01665
2572.85479,1.01668
2570.92612,1.01673
2568.99744,1.01674
2567.06876,1.01672
2565.14009,1.01671
2563.21141,1.01672
2561.28273,1.01670
2559.35406,1.01668
2557.42538,1.01669
2555.49670,1.01670
2553.56803,1.01672
2551.63935,1.01675
2549.71067,1.01675
2547.78200,1.01674
2545.85332,1.01673
2543.92464,1.01671
2541.99597,1.01669
2540.06729,1.01668
2538.13861,1.01669
2536.20994,1.01672
2534.28126,1.01675
2532.35258,1.01674
2530.42391,1.01673
2528.49523,1.01673
2526.56655,1.01673
2524.63788,1.01676
2522.70920,1.01678
2520.78052,1.01678
2518.85185,1.01675
2516.92317,1.01673
2514.99449,1.01675
2513.06582,1.01677
2511.13714,1.01679
2509.20846,1.01680
2507.27979,1.01678
2505.35111,1.01673
2503.42243,1.01671
2501.49375,1.01674
2499.56508,1.01676
2497.63640,1.01675
2495.70772,1.01674
2493.77905,1.01674
2491.85037,1.01673
2489.92169,1.01671
2487.99302,1.01669
2486.06434,1.01665
2484.13566,1.01663
2482.20699,1.01663
2480.27831,1.01663
2478.34963,1.01662
2476.42096,1.01663
2474.49228,1.01667
2472.56360,1.01671
2470.63493,1.01675
2468.70625,1.01677
2466.77757,1.01678
2464.84890,1.01679
2462.92022,1.01683
2460.99154,1.01689
2459.06287,1.01689
2457.13419,1.01687
2455.20551,1.01687
2453.27684,1.01689
2451.34816,1.01690
2449.41948,1.01692
2447.49081,1.01694
2445.56213,1.01695
2443.63345,1.01694
2441.70478,1.01695
2439.77610,1.01698
2437.84742,1.01698
2435.91875,1.01696
2433.99007,1.01698
2432.06139,1.01700
2430.13271,1.01699
2428.20404,1.01698
2426.27536,1.01699
2424.34668,1.01701
2422.41801,1.01702
2420.48933,1.01701
2418.56065,1.01696
2416.63198,1.01691
2414.70330,1.01688
2412.77462,1.01689
2410.84595,1.01689
2408.91727,1.01686
2406.98859,1.01680
2405.05992,1.01678
2403.13124,1.01676
2401.20256,1.01675
2399.27389,1.01676
2397.34521,1.01678
2395.41653,1.01679
2393.48786,1.01681
2391.55918,1.01686
2389.63050,1.01690
2387.70183,1.01691
2385.77315,1.01690
2383.84447,1.01689
2381.91580,1.01686
2379.98712,1.01686
2378.05844,1.01688
2376.12977,1.01690
2374.20109,1.01688
2372.27241,1.01687
2370.34374,1.01687
2368.41506,1.01689
2366.48638,1.01691
2364.55771,1.01692
2362.62903,1.01691
2360.70035,1.01689
2358.77167,1.01689
2356.84300,1.01691
2354.91432,1.01693
2352.98564,1.01695
2351.05697,1.01696
2349.12829,1.01696
2347.19961,1.01698
2345.27094,1.01703
2343.34226,1.01705
2341.41358,1.01704
2339.48491,1.01705
2337.55623,1.01710
2335.62755,1.01713
2333.69888,1.01711
2331.77020,1.01710
2329.84152,1.01709
2327.91285,1.01708
2325.98417,1.01707
2324.05549,1.01708
2322.12682,1.01709
2320.19814,1.01710
2318.26946,1.01711
2316.34079,1.01712
2314.41211,1.01712
2312.48343,1.01711
2310.55476,1.01709
2308.62608,1.01708
2306.69740,1.01710
2304.76873,1.01715
2302.84005,1.01720
2300.91137,1.01723
2298.98270,1.01722
2297.05402,1.01721
2295.12534,1.01724
2293.19667,1.01725
2291.26799,1.01723
2289.33931,1.01721
2287.41063,1.01720
2285.48196,1.01719
2283.55328,1.01719
2281.62460,1.01719
2279.69593,1.01723
2277.76725,1.01726
2275.83857,1.01728
2273.90990,1.01729
2271.98122,1.01732
2270.05254,1.01732
2268.12387,1.01731
2266.19519,1.01728
2264.26651,1.01726
2262.33784,1.01726
2260.40916,1.01729
2258.48048,1.01730
2256.55181,1.01729
2254.62313,1.01731
2252.69445,1.01733
2250.76578,1.01736
2248.83710,1.01737
2246.90842,1.01736
2244.97975,1.01735
2243.05107,1.01735
2241.12239,1.01736
2239.19372,1.01738
2237.26504,1.01739
2235.33636,1.01740
2233.40769,1.01740
2231.47901,1.01741
2229.55033,1.01741
2227.62166,1.01738
2225.69298,1.01738
2223.76430,1.01740
2221.83563,1.01742
2219.90695,1.01744
2217.97827,1.01746
2216.04959,1.01748
2214.12092,1.01748
2212.19224,1.01744
2210.26356,1.01738
2208.33489,1.01734
2206.40621,1.01736
2204.47753,1.01740
2202.54886,1.01741
2200.62018,1.01737
2198.69150,1.01734
2196.76283,1.01734
2194.83415,1.01735
2192.90547,1.01737
2190.97680,1.01737
2189.04812,1.01737
2187.11944,1.01736
2185.19077,1.01735
2183.26209,1.01735
2181.33341,1.01732
2179.40474,1.01729
2177.47606,1.01728
2175.54738,1.01728
2173.61871,1.01732
2171.69003,1.01737
2169.76135,1.01738
2167.83268,1.01739
2165.90400,1.01739
2163.97532,1.01742
2162.04665,1.01745
2160.11797,1.01746
2158.18929,1.01747
2156.26062,1.01750
2154.33194,1.01752
2152.40326,1.01751
2150.47458,1.01752
2148.54591,1.01752
2146.61723,1.01749
2144.68855,1.01749
2142.75988,1.01751
2140.83120,1.01752
2138.90252,1.01750
2136.97385,1.01747
2135.04517,1.01748
2133.11649,1.01750
2131.18782,1.01750
2129.25914,1.01748
2127.33046,1.01746
2125.40179,1.01746
2123.47311,1.01745
2121.54443,1.01744
2119.61576,1.01743
2117.68708,1.01743
2115.75840,1.01746
2113.82973,1.01748
2111.90105,1.01748
2109.97237,1.01746
2108.04370,1.01743
2106.11502,1.01743
2104.18634,1.01744
2102.25767,1.01744
2100.32899,1.01743
2098.40031,1.01745
2096.47164,1.01748
2094.54296,1.01747
2092.61428,1.01745
2090.68561,1.01744
2088.75693,1.01743
2086.82825,1.01741
2084.89958,1.01738
2082.97090,1.01735
2081.04222,1.01733
2079.11354,1.01734
2077.18487,1.01735
2075.25619,1.01735
2073.32751,1.01734
2071.39884,1.01731
2069.47016,1.01729
2067.54148,1.01729
2065.61281,1.01731
2063.68413,1.01733
2061.75545,1.01733
2059.82678,1.01731
2057.89810,1.01728
2055.96942,1.01728
2054.04075,1.01729
2052.11207,1.01727
2050.18339,1.01722
2048.25472,1.01717
2046.32604,1.01717
2044.39736,1.01721
2042.46869,1.01723
2040.54001,1.01723
2038.61133,1.01723
2036.68266,1.01724
2034.75398,1.01722
2032.82530,1.01719
2030.89663,1.01717
2028.96795,1.01716
2027.03927,1.01714
2025.11060,1.01712
2023.18192,1.01714
2021.25324,1.01715
2019.32457,1.01715
2017.39589,1.01716
2015.46721,1.01714
2013.53854,1.01710
2011.60986,1.01707
2009.68118,1.01707
2007.75250,1.01708
2005.82383,1.01707
2003.89515,1.01705
2001.96647,1.01702
2000.03780,1.01700
1998.10912,1.01701
1996.18044,1.01703
1994.25177,1.01701
1992.32309,1.01699
1990.39441,1.01699
1988.46574,1.01696
1986.53706,1.01692
1984.60838,1.01689
1982.67971,1.01687
1980.75103,1.01684
1978.82235,1.01683
1976.89368,1.01680
1974.96500,1.01676
1973.03632,1.01671
1971.10765,1.01668
1969.17897,1.01667
1967.25029,1.01667
1965.32162,1.01666
1963.39294,1.01662
1961.46426,1.01656
1959.53559,1.01650
1957.60691,1.01647
1955.67823,1.01646
1953.74956,1.01646
1951.82088,1.01645
1949.89220,1.01641
1947.96353,1.01638
1946.03485,1.01637
1944.10617,1.01638
1942.17750,1.01639
1940.24882,1.01636
1938.32014,1.01630
1936.39146,1.01625
1934.46279,1.01622
1932.53411,1.01620
1930.60543,1.01619
1928.67676,1.01617
1926.74808,1.01616
1924.81940,1.01613
1922.89073,1.01608
1920.96205,1.01600
1919.03337,1.01589
1917.10470,1.01578
1915.17602,1.01568
1913.24734,1.01556
1911.31867,1.01544
1909.38999,1.01536
1907.46131,1.01533
1905.53264,1.01530
1903.60396,1.01523
1901.67528,1.01513
1899.74661,1.01501
1897.81793,1.01488
1895.88925,1.01474
1893.96058,1.01466
1892.03190,1.01468
1890.10322,1.01472
1888.17455,1.01475
1886.24587,1.01476
1884.31719,1.01480
1882.38852,1.01484
1880.45984,1.01491
1878.53116,1.01496
1876.60249,1.01497
1874.67381,1.01497
1872.74513,1.01498
1870.81646,1.01501
1868.88778,1.01503
1866.95910,1.01504
1865.03042,1.01504
1863.10175,1.01505
1861.17307,1.01508
1859.24439,1.01511
1857.31572,1.01511
1855.38704,1.01510
1853.45836,1.01510
1851.52969,1.01508
1849.60101,1.01506
1847.67233,1.01504
1845.74366,1.01503
1843.81498,1.01502
1841.88630,1.01502
1839.95763,1.01502
1838.02895,1.01499
1836.10027,1.01494
1834.17160,1.01491
1832.24292,1.01489
1830.31424,1.01489
1828.38557,1.01487
1826.45689,1.01484
1824.52821,1.01481
1822.59954,1.01481
1820.67086,1.01479
1818.74218,1.01474
1816.81351,1.01469
1814.88483,1.01465
1812.95615,1.01458
1811.02748,1.01450
1809.09880,1.01444
1807.17012,1.01443
1805.24145,1.01443
1803.31277,1.01439
1801.38409,1.01430
1799.45542,1.01420
1797.52674,1.01415
1795.59806,1.01414
1793.66938,1.01411
1791.74071,1.01404
1789.81203,1.01395
1787.88335,1.01389
1785.95468,1.01386
1784.02600,1.01382
1782.09732,1.01376
1780.16865,1.01367
1778.23997,1.01356
1776.31129,1.01344
1774.38262,1.01323
1772.45394,1.01275
1770.52526,1.01200
1768.59659,1.01138
1766.66791,1.01135
1764.73923,1.01171
1762.81056,1.01200
1760.88188,1.01204
1758.95320,1.01195
1757.02453,1.01184
1755.09585,1.01180
1753.16717,1.01185
1751.23850,1.01196
1749.30982,1.01205
1747.38114,1.01206
1745.45247,1.01194
1743.52379,1.01172
1741.59511,1.01139
1739.66644,1.01099
1737.73776,1.01052
1735.80908,1.00997
1733.88041,1.00926
1731.95173,1.00834
1730.02305,1.00721
1728.09438,1.00591
1726.16570,1.00447
1724.23702,1.00291
1722.30834,1.00127
1720.37967,0.99968
1718.45099,0.99819
1716.52231,0.99680
1714.59364,0.99554
1712.66496,0.99445
1710.73628,0.99360
1708.80761,0.99302
1706.87893,0.99279
1704.95025,0.99294
1703.02158,0.99338
1701.09290,0.99399
1699.16422,0.99468
1697.23555,0.99539
1695.30687,0.99604
1693.37819,0.99659
1691.44952,0.99700
1689.52084,0.99728
1687.59216,0.99743
1685.66349,0.99742
1683.73481,0.99724
1681.80613,0.99691
1679.87746,0.99643
1677.94878,0.99569
1676.02010,0.99462
1674.09143,0.99315
1672.16275,0.99116
1670.23407,0.98835
1668.30540,0.98427
1666.37672,0.97810
1664.44804,0.96833
1662.51937,0.95282
1660.59069,0.92987
1658.66201,0.90057
1656.73333,0.87108
1654.80466,0.85148
1652.87598,0.84919
1650.94730,0.86251
1649.01863,0.88285
1647.08995,0.90249
1645.16127,0.91777
1643.23260,0.92828
1641.30392,0.93499
1639.37524,0.93893
1637.44657,0.94092
1635.51789,0.94159
1633.58921,0.94133
1631.66054,0.94042
1629.73186,0.93910
1627.80318,0.93755
1625.87451,0.93595
1623.94583,0.93460
1622.01715,0.93382
1620.08848,0.93391
1618.15980,0.93507
1616.23112,0.93730
1614.30245,0.94046
1612.37377,0.94431
1610.44509,0.94857
1608.51642,0.95285
1606.58774,0.95676
1604.65906,0.95992
1602.73039,0.96200
1600.80171,0.96282
1598.87303,0.96251
1596.94436,0.96148
1595.01568,0.96040
1593.08700,0.95976
1591.15833,0.95953
1589.22965,0.95934
1587.30097,0.95882
1585.37229,0.95781
1583.44362,0.95638
1581.51494,0.95472
1579.58626,0.95301
1577.65759,0.95137
1575.72891,0.94992
1573.80023,0.94877
1571.87156,0.94790
1569.94288,0.94724
1568.01420,0.94684
1566.08553,0.94674
1564.15685,0.94693
1562.22817,0.94737
1560.29950,0.94807
1558.37082,0.94906
1556.44214,0.95029
1554.51347,0.95175
1552.58479,0.95338
1550.65611,0.95509
1548.72744,0.95687
1546.79876,0.95876
1544.87008,0.96079
1542.94141,0.96294
1541.01273,0.96520
1539.08405,0.96752
1537.15538,0.96984
1535.22670,0.97218
1533.29802,0.97452
1531.36935,0.97680
1529.44067,0.97898
1527.51199,0.98105
1525.58332,0.98299
1523.65464,0.98476
1521.72596,0.98637
1519.79729,0.98785
1517.86861,0.98919
1515.93993,0.99045
1514.01125,0.99166
1512.08258,0.99282
1510.15390,0.99395
1508.22522,0.99504
1506.29655,0.99604
1504.36787,0.99694
1502.43919,0.99775
1500.51052,0.99842
1498.58184,0.99891
1496.65316,0.99921
1494.72449,0.99931
1492.79581,0.99924
1490.86713,0.99897
1488.93846,0.99846
1487.00978,0.99768
1485.08110,0.99660
1483.15243,0.99514
1481.22375,0.99321
1479.29507,0.99074
1477.36640,0.98749
1475.43772,0.98320
1473.50904,0.97775
1471.58037,0.97144
1469.65169,0.96482
1467.72301,0.95798
1465.79434,0.95030
1463.86566,0.94108
1461.93698,0.93013
1460.00831,0.91803
1458.07963,0.90666
1456.15095,0.89907
1454.22228,0.89771
1452.29360,0.90251
1450.36492,0.91118
1448.43625,0.92086
1446.50757,0.92964
1444.57889,0.93686
1442.65021,0.94263
1440.72154,0.94727
1438.79286,0.95114
1436.86418,0.95448
1434.93551,0.95744
1433.00683,0.96003
1431.07815,0.96220
1429.14948,0.96377
1427.22080,0.96456
1425.29212,0.96459
1423.36345,0.96421
1421.43477,0.96389
1419.50609,0.96385
1417.57742,0.96407
1415.64874,0.96430
1413.72006,0.96427
1411.79139,0.96372
1409.86271,0.96237
1407.93403,0.95994
1406.00536,0.95615
1404.07668,0.95064
1402.14800,0.94283
1400.21933,0.93175
1398.29065,0.91635
1396.36197,0.89623
1394.43330,0.87208
1392.50462,0.84563
1390.57594,0.81945
1388.64727,0.79699
1386.71859,0.78291
1384.78991,0.78225
1382.86124,0.79741
1380.93256,0.82533
1379.00388,0.85820
1377.07521,0.88818
1375.14653,0.91161
1373.21785,0.92890
1371.28917,0.94180
1369.36050,0.95174
1367.43182,0.95963
1365.50314,0.96596
1363.57447,0.97106
1361.64579,0.97521
1359.71711,0.97874
1357.78844,0.98191
1355.85976,0.98478
1353.93108,0.98737
1352.00241,0.98968
1350.07373,0.99178
1348.14505,0.99376
1346.21638,0.99568
1344.28770,0.99751
1342.35902,0.99922
1340.43035,1.00077
1338.50167,1.00207
1336.57299,1.00307
1334.64432,1.00381
1332.71564,1.00435
1330.78696,1.00473
1328.85829,1.00496
1326.92961,1.00509
1325.00093,1.00517
1323.07226,1.00531
1321.14358,1.00556
1319.21490,1.00587
1317.28623,1.00619
1315.35755,1.00650
1313.42887,1.00682
1311.50020,1.00713
1309.57152,1.00738
1307.64284,1.00758
1305.71417,1.00775
1303.78549,1.00790
1301.85681,1.00803
1299.92813,1.00817
1297.99946,1.00828
1296.07078,1.00834
1294.14210,1.00836
1292.21343,1.00831
1290.28475,1.00816
1288.35607,1.00796
1286.42740,1.00770
1284.49872,1.00737
1282.57004,1.00702
1280.64137,1.00675
1278.71269,1.00666
1276.78401,1.00672
1274.85534,1.00687
1272.92666,1.00716
1270.99798,1.00768
1269.06931,1.00850
1267.14063,1.00945
1265.21195,1.01024
1263.28328,1.01059
1261.35460,1.01042
1259.42592,1.00988
1257.49725,1.00930
1255.56857,1.00886
1253.63989,1.00856
1251.71122,1.00836
1249.78254,1.00826
1247.85386,1.00818
1245.92519,1.00808
1243.99651,1.00797
1242.06783,1.00793
1240.13916,1.00805
1238.21048,1.00834
1236.28180,1.00873
1234.35313,1.00918
1232.42445,1.00964
1230.49577,1.01011
1228.56709,1.01059
1226.63842,1.01100
1224.70974,1.01130
1222.78106,1.01156
1220.85239,1.01180
1218.92371,1.01206
1216.99503,1.01241
1215.06636,1.01287
1213.13768,1.01345
1211.20900,1.01418
1209.28033,1.01509
1207.35165,1.01612
1205.42297,1.01697
1203.49430,1.01720
1201.56562,1.01679
1199.63694,1.01619
1197.70827,1.01580
1195.77959,1.01569
1193.85091,1.01579
1191.92224,1.01611
1189.99356,1.01663
1188.06488,1.01727
1186.13621,1.01783
1184.20753,1.01819
1182.27885,1.01838
1180.35018,1.01852
1178.42150,1.01866
1176.49282,1.01874
1174.56415,1.01876
1172.63547,1.01868
1170.70679,1.01852
1168.77812,1.01836
1166.84944,1.01826
1164.92076,1.01815
1162.99208,1.01799
1161.06341,1.01777
1159.13473,1.01743
1157.20605,1.01697
1155.27738,1.01647
1153.34870,1.01604
1151.42002,1.01579
1149.49135,1.01575
1147.56267,1.01584
1145.63399,1.01597
1143.70532,1.01608
1141.77664,1.01612
1139.84796,1.01610
1137.91929,1.01607
1135.99061,1.01602
1134.06193,1.01592
1132.13326,1.01579
1130.20458,1.01557
1128.27590,1.01515
1126.34723,1.01447
1124.41855,1.01347
1122.48987,1.01208
1120.56120,1.01037
1118.63252,1.00860
1116.70384,1.00728
1114.77517,1.00690
1112.84649,1.00757
1110.91781,1.00896
1108.98914,1.01065
1107.06046,1.01233
1105.13178,1.01386
1103.20311,1.01515
1101.27443,1.01616
1099.34575,1.01687
1097.41708,1.01735
1095.48840,1.01765
1093.55972,1.01783
1091.63104,1.01799
1089.70237,1.01811
1087.77369,1.01813
1085.84501,1.01811
1083.91634,1.01809
1081.98766,1.01808
1080.05898,1.01806
1078.13031,1.01802
1076.20163,1.01797
1074.27295,1.01791
1072.34428,1.01786
1070.41560,1.01783
1068.48692,1.01782
1066.55825,1.01783
1064.62957,1.01783
1062.70089,1.01782
1060.77222,1.01783
1058.84354,1.01783
1056.91486,1.01784
1054.98619,1.01784
1053.05751,1.01783
1051.12883,1.01789
1049.20016,1.01805
1047.27148,1.01838
1045.34280,1.01901
1043.41413,1.02002
1041.48545,1.02100
1039.55677,1.02123
1037.62810,1.02049
1035.69942,1.01934
1033.77074,1.01841
1031.84207,1.01788
1029.91339,1.01758
1027.98471,1.01736
1026.05604,1.01714
1024.12736,1.01694
1022.19868,1.01679
1020.27000,1.01669
1018.34133,1.01659
1016.41265,1.01646
1014.48397,1.01631
1012.55530,1.01617
1010.62662,1.01605
1008.69794,1.01586
1006.76927,1.01562
1004.84059,1.01544
1002.91191,1.01537
1000.98324,1.01533
999.05456,1.01528
997.12588,1.01522
995.19721,1.01517
993.26853,1.01510
991.33985,1.01500
989.41118,1.01488
987.48250,1.01478
985.55382,1.01473
983.62515,1.01466
981.69647,1.01453
979.76779,1.01437
977.83912,1.01421
975.91044,1.01406
973.98176,1.01390
972.05309,1.01371
970.12441,1.01345
968.19573,1.01321
966.26706,1.01298
964.33838,1.01273
962.40970,1.01240
960.48103,1.01201
958.55235,1.01155
956.62367,1.01105
954.69500,1.01053
952.76632,1.00999
950.83764,1.00944
948.90896,1.00890
946.98029,1.00823
945.05161,1.00729
943.12293,1.00621
941.19426,1.00543
939.26558,1.00518
937.33690,1.00538
935.40823,1.00590
933.47955,1.00665
931.55087,1.00745
929.62220,1.00817
927.69352,1.00876
925.76484,1.00926
923.83617,1.00966
921.90749,1.00995
919.97881,1.01022
918.05014,1.01045
916.12146,1.01060
914.19278,1.01067
912.26411,1.01071
910.33543,1.01075
908.40675,1.01078
906.47808,1.01078
904.54940,1.01073
902.62072,1.01070
900.69205,1.01072
898.76337,1.01073
896.83469,1.01072
894.90602,1.01071
892.97734,1.01068
891.04866,1.01061
889.11999,1.01056
887.19131,1.01061
885.26263,1.01072
883.33396,1.01078
881.40528,1.01082
879.47660,1.01094
877.54792,1.01112
875.61925,1.01127
873.69057,1.01132
871.76189,1.01123
869.83322,1.01105
867.90454,1.01087
865.97586,1.01073
864.04719,1.01063
862.11851,1.01053
860.18983,1.01039
858.26116,1.01027
856.33248,1.01017
854.40380,1.01008
852.47513,1.01001
850.54645,1.00996
848.61777,1.00987
846.68910,1.00972
844.76042,1.00955
842.83174,1.00942
840.90307,1.00933
838.97439,1.00928
837.04571,1.00924
835.11704,1.00922
833.18836,1.00916
831.25968,1.00911
829.33101,1.00914
827.40233,1.00924
825.47365,1.00934
823.54498,1.00932
821.61630,1.00911
819.68762,1.00881
817.75895,1.00852
815.83027,1.00830
813.90159,1.00816
811.97292,1.00806
810.04424,1.00788
808.11556,1.00752
806.18688,1.00704
804.25821,1.00653
802.32953,1.00606
800.40085,1.00567
798.47218,1.00536
796.54350,1.00514
794.61482,1.00500
792.68615,1.00477
790.75747,1.00435
788.82879,1.00389
786.90012,1.00346
784.97144,1.00293
783.04276,1.00216
781.11409,1.00117
779.18541,0.99993
777.25673,0.99828
775.32806,0.99607
773.39938,0.99313
771.47070,0.98927
769.54203,0.98427
767.61335,0.97792
765.68467,0.96988
763.75600,0.96014
761.82732,0.95095
759.89864,0.94800
757.96997,0.95481
756.04129,0.96688
754.11261,0.97711
752.18394,0.98332
750.25526,0.98655
748.32658,0.98752
746.39791,0.98628
744.46923,0.98246
742.54055,0.97503
740.61188,0.96223
738.68320,0.94385
736.75452,0.92613
734.82584,0.92031
732.89717,0.93051
730.96849,0.94891
729.03981,0.96592
727.11114,0.97803
725.18246,0.98595
723.25378,0.99118
721.32511,0.99485
719.39643,0.99769
717.46775,1.00001
715.53908,1.00195
713.61040,1.00358
711.68172,1.00483
709.75305,1.00567
707.82437,1.00619
705.89569,1.00646
703.96702,1.00656
702.03834,1.00647
700.10966,1.00624
698.18099,1.00601
696.25231,1.00580
694.32363,1.00548
692.39496,1.00502
690.46628,1.00450
688.53760,1.00398
686.60893,1.00357
684.68025,1.00342
682.75157,1.00361
680.82290,1.00395
678.89422,1.00420
676.96554,1.00433
675.03687,1.00446
673.10819,1.00465
671.17951,1.00484
669.25083,1.00501
667.32216,1.00520
665.39348,1.00541
663.46480,1.00562
661.53613,1.00584
659.60745,1.00609
657.67877,1.00629
655.75010,1.00628
653.82142,1.00600
651.89274,1.00585
649.96407,1.00623
648.03539,1.00690
646.10671,1.00743
644.17804,1.00781
642.24936,1.00814
640.32068,1.00841
638.39201,1.00859
636.46333,1.00870
634.53465,1.00871
632.60598,1.00872
630.67730,1.00878
628.74862,1.00878
626.81995,1.00864
624.89127,1.00850
622.96259,1.00846
621.03392,1.00858
619.10524,1.00881
617.17656,1.00906
615.24789,1.00931
613.31921,1.00937
611.39053,1.00887
609.46186,1.00775
607.53318,1.00653
605.60450,1.00580
603.67583,1.00554
601.74715,1.00532
599.81847,1.00484
597.88979,1.00413
595.96112,1.00359
594.03244,1.00365
592.10376,1.00384
590.17509,1.00346
588.24641,1.00288
586.31773,1.00255
584.38906,1.00245
582.46038,1.00220
580.53170,1.00168
578.60303,1.00145
576.67435,1.00162
574.74567,1.00183
572.81700,1.00201
570.88832,1.00219
568.95964,1.00250
567.03097,1.00286
565.10229,1.00308
563.17361,1.00357
561.24494,1.00444
559.31626,1.00500
557.38758,1.00511
555.45891,1.00487
553.53023,1.00449
551.60155,1.00455
549.67288,1.00486
